phase FPC1 FPC2 FPC3 FPC4 mean
-10.0 -0.0034219999999999945 0.624892 0.775276 -0.256266 0.367668
-9.9 -0.0035489999999999966 0.6199349999999999 0.77191 -0.25263 0.36041200000000007
-9.8 -0.0036759999999999987 0.614978 0.768544 -0.248994 0.353156
-9.7 -0.003803000000000001 0.610021 0.765179 -0.245359 0.3459
-9.6 -0.0038809999999999956 0.604537 0.7610129999999999 -0.241554 0.3386450000000001
-9.5 -0.003958000000000003 0.599046 0.756837 -0.237746 0.33138900000000004
-9.4 -0.004035999999999998 0.593555 0.75266 -0.233939 0.324133
-9.3 -0.004064999999999999 0.587546 0.7476959999999999 -0.22996299999999997 0.3171860000000001
-9.2 -0.004092999999999999 0.58152 0.7427090000000001 -0.225983 0.310261
-9.1 -0.004121 0.575496 0.7377210000000001 -0.22200399999999998 0.303335
-9.0 -0.004102000000000008 0.568961 0.731959 -0.21786 0.29640799999999995
-8.9 -0.00408 0.562402 0.726159 -0.213707 0.289482
-8.8 -0.004056999999999991 0.555842 0.72036 -0.20955400000000002 0.28255699999999995
-8.7 -0.0039889999999999926 0.548782 0.7138 -0.20524 0.27592
-8.6 -0.003917999999999991 0.541689 0.70719 -0.200915 0.269324
-8.5 -0.003846000000000002 0.534596 0.70058 -0.19659000000000001 0.26272700000000004
-8.4 -0.003730000000000011 0.527009 0.69322 -0.192106 0.25613100000000005
-8.3 -0.003609000000000001 0.519383 0.6858 -0.187609 0.249535
-8.2 -0.003488000000000005 0.511756 0.678379 -0.183111 0.24293900000000002
-8.1 -0.0033219999999999916 0.503643 0.67022 -0.178458 0.23661299999999996
-8.0 -0.003152000000000002 0.495482 0.661989 -0.173789 0.23034600000000005
-7.9 -0.0029810000000000114 0.487321 0.653756 -0.16911900000000002 0.22407900000000003
-7.8 -0.0027669999999999917 0.478683 0.644799 -0.164295 0.217812
-7.7 -0.0025469999999999937 0.46998799999999996 0.635756 -0.159453 0.211546
-7.6 -0.0023259999999999947 0.46129299999999995 0.6267130000000001 -0.154611 0.205279
-7.5 -0.0020630000000000023 0.452129 0.616958 -0.149618 0.19926299999999997
-7.4 -0.001794000000000004 0.4429 0.607104 -0.144604 0.193326
-7.3 -0.0015239999999999976 0.43367200000000006 0.5972500000000001 -0.13959 0.18738899999999997
-7.2 -0.0012119999999999978 0.423981 0.586695 -0.134427 0.18145300000000003
-7.1 -0.000892999999999998 0.414219 0.57603 -0.129239 0.175516
-7.0 -0.0005729999999999971 0.404456 0.565365 -0.124053 0.16958
-6.9 -0.0002129999999999979 0.39424000000000003 0.554012 -0.118721 0.163873
-6.8 0.00015600000000000336 0.38394399999999995 0.542536 -0.11336199999999999 0.15826500000000002
-6.7 0.0005250000000000046 0.37364600000000003 0.5310600000000001 -0.10800300000000002 0.152659
-6.6 0.0009340000000000043 0.36290500000000003 0.5189079999999999 -0.10250000000000001 0.14705100000000002
-6.5 0.001353 0.35207499999999997 0.506621 -0.096969 0.14144500000000002
-6.4 0.0017710000000000017 0.341244 0.494334 -0.09143699999999999 0.13583699999999999
-6.3 0.002230000000000003 0.329976 0.481383 -0.08576500000000001 0.13046000000000002
-6.2 0.002697999999999999 0.318612 0.468285 -0.080061 0.125214
-6.1 0.003165000000000001 0.307247 0.45518800000000004 -0.07435800000000001 0.11996699999999999
-6.0 0.0036479999999999985 0.295743 0.44176099999999996 -0.068685 0.11472100000000002
-5.9 0.004133999999999999 0.284205 0.42825599999999997 -0.06301999999999999 0.10947500000000002
-5.8 0.004620000000000006 0.272667 0.414749 -0.057354 0.10422899999999999
-5.7 0.005058 0.261708 0.401722 -0.052139 0.09935199999999997
-5.6 0.005482999999999995 0.25090500000000004 0.38882300000000003 -0.047044 0.094747
-5.5 0.005908999999999998 0.24010199999999998 0.37592400000000004 -0.041949 0.090141
-5.4 0.006283999999999998 0.229908 0.363539 -0.037319000000000005 0.085536
-5.3 0.006644999999999998 0.21989199999999998 0.351305 -0.032824000000000006 0.080931
-5.2 0.007004999999999997 0.209875 0.33907 -0.028329 0.076326
-5.1 0.007315999999999996 0.200456 0.327341 -0.02429 0.07208600000000001
-5.0 0.007611 0.191226 0.315771 -0.020397 0.068192
-4.9 0.007907 0.181997 0.304202 -0.016502 0.06429699999999999
-4.8 0.008153999999999998 0.173352 0.293127 -0.013054 0.06040200000000001
-4.7 0.008383999999999996 0.164909 0.282223 -0.009760999999999999 0.05650699999999999
-4.6 0.008614999999999998 0.156466 0.271318 -0.006467 0.052612000000000006
-4.5 0.008798000000000004 0.148596 0.260898 -0.0036109999999999996 0.049041000000000015
-4.4 0.008963999999999996 0.14094 0.250659 -0.0009170000000000003 0.04585499999999999
-4.3 0.009127999999999997 0.133285 0.240419 0.0017760000000000002 0.042671
-4.2 0.009248 0.12619 0.230654 0.0040409999999999995 0.03948600000000001
-4.1 0.009347999999999999 0.11932 0.22107900000000003 0.0061340000000000006 0.036301
-4.0 0.009448999999999999 0.112451 0.211505 0.008227 0.03311700000000001
-3.9 0.009502999999999998 0.106131 0.202395 0.009899999999999999 0.030212000000000003
-3.8 0.009538999999999999 0.100049 0.19348500000000002 0.011392 0.027738
-3.7 0.009574 0.093967 0.18457600000000002 0.012884999999999999 0.025263000000000008
-3.6 0.009565 0.088422 0.176121 0.013967 0.022789000000000004
-3.5 0.009536000000000001 0.083126 0.167876 0.014859 0.020314000000000013
-3.4 0.009505 0.07783000000000001 0.159631 0.015751 0.017839999999999995
-3.3 0.009433000000000002 0.07306 0.151831 0.016242 0.015601999999999998
-3.2 0.009337999999999999 0.068552 0.14425100000000002 0.016533000000000003 0.013837999999999996
-3.1 0.009244 0.064042 0.13667200000000002 0.016824000000000002 0.012075000000000002
-3.0 0.009106000000000001 0.060047 0.129525 0.016724000000000003 0.010311
-2.9 0.008947 0.056325 0.122611 0.016415 0.008548
-2.8 0.008787 0.052603 0.115696 0.016106000000000002 0.006783999999999998
-2.7 0.008586000000000002 0.049382 0.109206 0.015413999999999999 0.005213999999999996
-2.6 0.008359999999999998 0.046448 0.10295599999999999 0.014505 0.004161000000000005
-2.5 0.008136000000000001 0.043511999999999995 0.096706 0.013595000000000001 0.0031069999999999987
-2.4 0.007869999999999999 0.041067 0.09087 0.012312 0.0020540000000000003
-2.3 0.007580999999999999 0.038918 0.085285 0.010802 0.0009999999999999974
-2.2 0.007291 0.03677 0.079701 0.009291999999999998 -5.3999999999998494e-05
-2.1 0.006971000000000001 0.035049 0.074508 0.007479999999999999 -0.0009879999999999993
-2.0 0.0066300000000000005 0.033604 0.069571 0.0054730000000000004 -0.0014790000000000011
-1.9 0.006289 0.032159 0.064632 0.0034660000000000003 -0.0019699999999999995
-1.8 0.005973000000000001 0.030813 0.06000900000000001 0.0015609999999999999 -0.0024610000000000014
-1.7 0.005674 0.029533999999999998 0.055599 -0.00027199999999999967 -0.0029530000000000008
-1.6 0.005375 0.028254 0.05119 -0.0021060000000000002 -0.003443
-1.5 0.00511 0.027009 0.047074000000000005 -0.003762999999999999 -0.003896
-1.4 0.0048709999999999995 0.025788 0.043171 -0.0052899999999999996 -0.004129000000000001
-1.3 0.004631000000000001 0.024567 0.039269 -0.006816999999999999 -0.0043619999999999996
-1.2 0.004425 0.023379 0.03565 -0.008173 -0.004593999999999999
-1.1 0.004245 0.022216 0.032254 -0.009394 -0.004827
-1.0 0.004066 0.021054 0.028857 -0.010614 -0.005059999999999999
-0.9 0.0039180000000000005 0.019923 0.025737000000000003 -0.011666999999999999 -0.005269
-0.8 0.0037979999999999997 0.018819 0.022845 -0.012580999999999998 -0.005253
-0.7 0.003678 0.017715 0.019955 -0.013495 -0.005235999999999999
-0.6 0.003589 0.016641 0.017333 -0.014246000000000002 -0.005221
-0.5 0.003529 0.015595000000000001 0.014949 -0.014854 -0.005204
-0.4 0.0034690000000000003 0.01455 0.012563000000000001 -0.015462 -0.005187000000000001
-0.3 0.003439 0.013534000000000001 0.010440000000000001 -0.015910999999999998 -0.005162999999999999
-0.2 0.0034389999999999998 0.012546 0.00856 -0.016212 -0.0048980000000000004
-0.1 0.003437 0.011558 0.006682 -0.016513 -0.004633
0.0 0.0034660000000000003 0.0106 0.005057 -0.01666 -0.0043679999999999995
0.1 0.003526 0.00967 0.003684 -0.016654000000000002 -0.004103000000000001
0.2 0.003585 0.008741 0.0023109999999999997 -0.016648000000000003 -0.0038369999999999997
0.3 0.003672 0.007841 0.0011840000000000002 -0.016494 -0.0035720000000000005
0.4 0.003791 0.00697 0.0003159999999999999 -0.016182 -0.0030660000000000006
0.5 0.00391 0.006099 -0.0005499999999999997 -0.015870000000000002 -0.0025509999999999994
0.6 0.004057 0.005255 -0.0011780000000000002 -0.015413000000000001 -0.0020369999999999997
0.7 0.004235 0.004442 -0.0015389999999999996 -0.014794 -0.001522
0.8 0.004413 0.00363 -0.0019010000000000003 -0.014175 -0.0010079999999999993
0.9 0.004619 0.0028439999999999997 -0.0020300000000000006 -0.013417 -0.0004929999999999995
1.0 0.004857 0.0020889999999999997 -0.0018870000000000002 -0.012492 0.0002470000000000007
1.1 0.005095 0.0013350000000000002 -0.001742 -0.011566 0.0010100000000000005
1.2 0.00536 0.0006059999999999998 -0.001373 -0.010505 0.0017739999999999995
1.3 0.005657 -8.99999999999998e-05 -0.000722 -0.009273 0.0025369999999999993
1.4 0.005955 -0.0007860000000000002 -7.200000000000002e-05 -0.008041 0.0033009999999999984
1.5 0.006278 -0.001456999999999999 0.0007950000000000001 -0.006679000000000001 0.004063999999999998
1.6 0.006635 -0.0020949999999999996 0.001951 -0.005140999999999999 0.005033000000000001
1.7 0.006993 -0.002733000000000001 0.003108 -0.0036019999999999993 0.006038999999999999
1.8 0.007374 -0.0033439999999999998 0.004465 -0.0019400000000000008 0.007044000000000002
1.9 0.007790999999999999 -0.003919000000000001 0.006109 -0.00010199999999999966 0.008049
2.0 0.008207 -0.004494999999999999 0.0077529999999999995 0.0017360000000000014 0.009055
2.1 0.00864 -0.004993000000000001 0.009381 0.003615 0.010061
2.2 0.009097000000000001 -0.005378999999999998 0.010986 0.005559 0.011085999999999999
2.3 0.009555000000000001 -0.005764000000000002 0.01259 0.007501 0.012115999999999998
2.4 0.010024 -0.006053000000000003 0.014079 0.009446 0.013147000000000002
2.5 0.010513000000000002 -0.0061849999999999995 0.015383 0.011396 0.014178
2.6 0.011002000000000001 -0.006317 0.016687 0.013347 0.015209
2.7 0.011503000000000003 -0.006356999999999998 0.01788 0.015300000000000001 0.016238999999999996
2.8 0.012024 -0.0062369999999999995 0.018883999999999998 0.017258 0.017211000000000004
2.9 0.012544 -0.006117000000000001 0.019887 0.019216 0.018159999999999996
3.0 0.013075999999999997 -0.0059080000000000035 0.020785 0.021177 0.019110000000000002
3.1 0.013628 -0.005534999999999998 0.021488 0.023142999999999997 0.020059999999999995
3.2 0.014182 -0.005160999999999999 0.022191 0.025109 0.02101
3.3 0.014743999999999998 -0.004704 0.022793 0.027078 0.021959000000000006
3.4 0.015328 -0.004077999999999998 0.023195 0.029052 0.022855
3.5 0.015912999999999997 -0.0034529999999999977 0.023598 0.031025999999999998 0.023724000000000002
3.6 0.016507 -0.0027450000000000044 0.023904 0.033003 0.024593000000000004
3.7 0.017123 -0.0018670000000000006 0.024006 0.034984 0.025462
3.8 0.017738999999999998 -0.0009899999999999978 0.024108 0.036966 0.026331999999999994
3.9 0.018366 -3.299999999999831e-05 0.024118 0.03895 0.027201000000000003
4.0 0.019012 0.0010980000000000018 0.02392 0.040939 0.028020000000000003
4.1 0.019659999999999997 0.002229000000000002 0.023722 0.042929 0.028808
4.2 0.020318000000000003 0.0034329999999999986 0.023437 0.044921 0.029597
4.3 0.020997000000000002 0.004817000000000002 0.022938 0.046918 0.030384999999999995
4.4 0.021677000000000002 0.006199999999999997 0.022439 0.048916 0.031172000000000005
4.5 0.022365000000000003 0.007653000000000007 0.021856999999999998 0.050915 0.03196099999999999
4.6 0.023077 0.009289999999999993 0.021058 0.052920999999999996 0.032705
4.7 0.023788000000000004 0.010925999999999998 0.02026 0.054925999999999996 0.03341200000000001
4.8 0.024508 0.012628 0.019381999999999996 0.056933 0.03412
4.9 0.025249999999999998 0.01451799999999999 0.018283 0.058946 0.034825999999999996
5.0 0.025994 0.016407000000000005 0.017182999999999997 0.060959 0.03553400000000001
5.1 0.026745 0.018358000000000013 0.01601 0.062974 0.03624100000000001
5.2 0.027519000000000002 0.020500000000000004 0.014609 0.06499400000000001 0.036909
5.3 0.028294 0.02264200000000001 0.01321 0.06701599999999999 0.037536000000000014
5.4 0.029076 0.02484199999999999 0.01174 0.069038 0.038161999999999974
5.5 0.029882000000000002 0.027235999999999996 0.01004 0.07106699999999999 0.03878899999999999
5.6 0.03069 0.02963099999999999 0.00834 0.073096 0.03941600000000001
5.7 0.031502999999999996 0.03208 0.006574 0.075126 0.040042999999999995
5.8 0.032340999999999995 0.034726999999999994 0.004573999999999998 0.077163 0.040655
5.9 0.033179 0.037374000000000004 0.002572999999999999 0.07919899999999999 0.041246000000000005
6.0 0.034022 0.040033 0.0005760000000000001 0.08118800000000001 0.041839000000000015
6.1 0.034883000000000004 0.042737 -0.0014079999999999995 0.08299 0.042430999999999996
6.2 0.035745 0.045443 -0.003393 0.084792 0.04302399999999998
6.3 0.036609 0.04811299999999999 -0.005298999999999998 0.08649399999999999 0.04361599999999999
6.4 0.037481 0.050626000000000004 -0.0068610000000000025 0.08775000000000002 0.044265
6.5 0.038354000000000006 0.05314000000000001 -0.008422000000000002 0.08900700000000002 0.04501299999999997
6.6 0.039227 0.055619000000000016 -0.009911 0.09017000000000001 0.045760999999999996
6.7 0.040110999999999994 0.057939000000000004 -0.011047000000000001 0.09088099999999999 0.046508999999999995
6.8 0.040996000000000005 0.060259999999999994 -0.012183999999999997 0.09158999999999999 0.04725700000000002
6.9 0.041880999999999995 0.06255000000000001 -0.013255 0.092215 0.04800599999999999
7.0 0.042775999999999995 0.064677 -0.013965000000000002 0.092377 0.04880700000000002
7.1 0.043671 0.06680499999999999 -0.014677000000000003 0.09254100000000001 0.049731
7.2 0.044567999999999997 0.06890399999999999 -0.015328999999999995 0.09262600000000001 0.05065599999999998
7.3 0.04547400000000001 0.070838 -0.015615000000000004 0.092243 0.05158099999999999
7.4 0.046381000000000006 0.07277199999999999 -0.015901000000000002 0.09185800000000001 0.05250499999999997
7.5 0.047288 0.074681 -0.016134000000000003 0.09140599999999999 0.05343000000000003
7.6 0.048206000000000006 0.076422 -0.015996000000000003 0.090475 0.05439699999999997
7.7 0.049123 0.07816299999999998 -0.015857000000000003 0.089543 0.05549799999999999
7.8 0.050043 0.079883 -0.015672000000000002 0.088552 0.05659900000000001
7.9 0.050971 0.08142999999999999 -0.015108 0.08707299999999998 0.057699999999999974
8.0 0.0519 0.08297700000000001 -0.014544000000000001 0.085596 0.05880200000000002
8.1 0.05283000000000001 0.084506 -0.013939999999999998 0.08406499999999999 0.059902999999999984
8.2 0.053771 0.08586099999999999 -0.012952 0.08204099999999999 0.061035000000000006
8.3 0.054709999999999995 0.08721499999999999 -0.011963000000000001 0.080016 0.06231300000000001
8.4 0.05565200000000001 0.088554 -0.010939999999999998 0.07794599999999999 0.06359100000000001
8.5 0.056604 0.089715 -0.009525999999999998 0.07537399999999998 0.06486799999999998
8.6 0.057554999999999995 0.090876 -0.008111999999999998 0.07280299999999998 0.06614600000000004
8.7 0.058507 0.09202499999999998 -0.006671000000000002 0.07019499999999998 0.06742299999999996
8.8 0.059469999999999995 0.092994 -0.004832000000000001 0.067076 0.06872299999999998
8.9 0.060432999999999994 0.093962 -0.002994 0.06395700000000001 0.07017699999999999
9.0 0.061396 0.09492 -0.0011330000000000003 0.060811000000000004 0.07163199999999997
9.1 0.062369999999999995 0.09569499999999999 0.001131 0.057145 0.07308599999999998
9.2 0.06334500000000001 0.09647 0.0033940000000000003 0.053479 0.07454
9.3 0.064318 0.097238 0.005672999999999999 0.049793000000000004 0.07599300000000003
9.4 0.065304 0.09782 0.008362 0.04558100000000001 0.077459
9.5 0.066289 0.098402 0.011051 0.04136799999999999 0.07909
9.6 0.067275 0.09897999999999998 0.013749 0.03714500000000001 0.08072099999999999
9.7 0.068272 0.09936899999999999 0.016862 0.032383999999999996 0.08235100000000001
9.8 0.069268 0.09975699999999998 0.019977 0.02762400000000001 0.083982
9.9 0.07026400000000001 0.10014499999999998 0.023092 0.022862999999999994 0.08561300000000005
10.0 0.071255 0.10034600000000002 0.026495 0.017763 0.08724399999999999
10.1 0.072245 0.10054700000000001 0.029899000000000002 0.01266299999999998 0.08943399999999996
10.2 0.073235 0.100748 0.033302 0.007562999999999986 0.09162500000000007
10.3 0.07416400000000001 0.10078100000000001 0.036571 0.0027700000000000224 0.09381599999999995
10.4 0.075091 0.100812 0.039838 -0.002019999999999994 0.09600699999999995
10.5 0.076018 0.10084299999999999 0.043106 -0.0068100000000000105 0.09819700000000003
10.6 0.07688 0.10070899999999999 0.046204999999999996 -0.011244000000000004 0.10038800000000003
10.7 0.07774 0.100572 0.049300000000000004 -0.015669000000000016 0.10346400000000006
10.8 0.078601 0.10043399999999998 0.052395000000000004 -0.020094 0.10659700000000005
10.9 0.07939500000000001 0.10013399999999999 0.055325000000000006 -0.024168999999999996 0.10973100000000002
11.0 0.080188 0.09982799999999999 0.058249 -0.028229000000000004 0.11286500000000005
11.1 0.08098100000000001 0.09952199999999999 0.061172000000000004 -0.03228900000000001 0.11599800000000005
11.2 0.08170999999999999 0.099056 0.063932 -0.03600399999999998 0.11913099999999999
11.3 0.08243500000000001 0.098581 0.066683 -0.039698999999999984 0.12309300000000001
11.4 0.08316000000000001 0.098106 0.069434 -0.04339499999999999 0.12716899999999998
11.5 0.08382300000000001 0.09747399999999999 0.07202499999999999 -0.04675099999999999 0.13124499999999995
11.6 0.084481 0.09683099999999999 0.074604 -0.05008099999999999 0.1353209999999999
11.7 0.08514 0.096188 0.077183 -0.05341199999999999 0.1393970000000001
11.8 0.08573599999999999 0.09538900000000002 0.079604 -0.056408000000000014 0.14347200000000004
11.9 0.08632600000000001 0.094578 0.082011 -0.05937299999999998 0.14831899999999998
12.0 0.086917 0.09376599999999999 0.084417 -0.062339000000000006 0.15333800000000009
12.1 0.087448 0.092802 0.086669 -0.06497700000000001 0.15835699999999997
12.2 0.087971 0.09182099999999999 0.088904 -0.067577 0.16337499999999994
12.3 0.088494 0.09084 0.091139 -0.07017800000000002 0.16839400000000004
12.4 0.08895800000000001 0.08971100000000001 0.093222 -0.07245599999999999 0.17341099999999998
12.5 0.08941299999999999 0.088561 0.09528299999999999 -0.07469099999999998 0.179145
12.6 0.08986899999999999 0.08741199999999999 0.097346 -0.076927 0.18510500000000008
12.7 0.09026600000000001 0.086116 0.09925900000000001 -0.078845 0.191067
12.8 0.09065399999999998 0.08479700000000001 0.10115000000000002 -0.08071600000000001 0.19702700000000006
12.9 0.09104400000000001 0.083479 0.10304 -0.08258700000000001 0.20298799999999995
13.0 0.09137400000000001 0.082017 0.104783 -0.084146 0.20894999999999997
13.1 0.09169600000000001 0.08053099999999999 0.10650200000000001 -0.08565199999999999 0.2155680000000001
13.2 0.09201700000000002 0.079044 0.10822 -0.087158 0.22247099999999997
13.3 0.092281 0.07741599999999998 0.109793 -0.088358 0.229375
13.4 0.092535 0.07576 0.11134 -0.08949900000000001 0.236278
13.5 0.09278899999999998 0.074106 0.112886 -0.09064 0.24318300000000004
13.6 0.09298800000000002 0.07231100000000001 0.114291 -0.091481 0.25008600000000003
13.7 0.09317399999999999 0.070487 0.11566500000000002 -0.09225699999999999 0.25754600000000005
13.8 0.09336 0.068664 0.117039 -0.09303299999999999 0.265324
13.9 0.093491 0.066719 0.118285 -0.09351799999999999 0.273103
14.0 0.093608 0.064745 0.11950199999999998 -0.093932 0.28088100000000005
14.1 0.09372599999999999 0.06276999999999999 0.120718 -0.094347 0.288659
14.2 0.09377900000000002 0.060807 0.12190699999999999 -0.09450099999999999 0.296438
14.3 0.093815 0.05884500000000001 0.123091 -0.09458699999999999 0.30436399999999997
14.4 0.09384999999999999 0.05688400000000002 0.124273 -0.09467199999999999 0.31240099999999993
14.5 0.09381999999999999 0.054963999999999985 0.125454 -0.09450700000000001 0.3204370000000001
14.6 0.09377 0.05305499999999999 0.126634 -0.094272 0.328473
14.7 0.09372099999999998 0.051148 0.127814 -0.094037 0.33651
