phase FPC1 FPC2 FPC3 FPC4 mean
-10.0 0.049062 -0.097193 0.08547699999999997 0.106571 0.17701299999999998
-9.9 0.04881100000000001 -0.09693200000000002 0.084542 0.10884799999999997 0.16930900000000004
-9.8 0.04856100000000001 -0.09667 0.08360699999999999 0.11112400000000003 0.16160600000000003
-9.7 0.04831100000000001 -0.09640899999999998 0.08267200000000002 0.1134 0.15390199999999998
-9.6 0.048038 -0.09595899999999999 0.08178199999999997 0.115337 0.14619900000000008
-9.5 0.04776599999999999 -0.09550499999999999 0.08089299999999999 0.11727000000000001 0.13849599999999995
-9.4 0.047492 -0.095051 0.08000399999999996 0.119201 0.13079299999999994
-9.3 0.047198000000000004 -0.09441 0.079158 0.12080100000000002 0.12428700000000004
-9.2 0.046902 -0.093764 0.078314 0.12238899999999997 0.117861
-9.1 0.046605999999999995 -0.09311599999999999 0.07747100000000001 0.123977 0.11143400000000003
-9.0 0.046289 -0.092285 0.07667100000000004 0.12523499999999999 0.10500599999999993
-8.9 0.045971 -0.09144500000000001 0.075872 0.12647999999999998 0.09857899999999997
-8.8 0.045653 -0.090606 0.07507400000000003 0.127724 0.0921519999999999
-8.7 0.045313000000000006 -0.08958500000000001 0.07431900000000002 0.128645 0.08684599999999998
-8.6 0.044972 -0.08855199999999999 0.073567 0.129544 0.08169499999999996
-8.5 0.044632000000000005 -0.08751899999999999 0.07281399999999999 0.13044399999999998 0.07654500000000009
-8.4 0.04426899999999999 -0.08630800000000001 0.07210299999999997 0.131025 0.07139400000000007
-8.3 0.043906 -0.085081 0.07139699999999999 0.131581 0.06624399999999997
-8.2 0.043542 -0.08385600000000001 0.07068999999999998 0.13213799999999998 0.06109299999999995
-8.1 0.043159 -0.082454 0.070025 0.132379 0.05698599999999998
-8.0 0.042772 -0.08103600000000001 0.06936400000000004 0.13259100000000001 0.05311200000000005
-7.9 0.04238599999999999 -0.07961700000000001 0.06870199999999999 0.132803 0.04923600000000006
-7.8 0.04198 -0.078026 0.06808199999999998 0.13270700000000002 0.04536200000000001
-7.7 0.041571000000000004 -0.07641400000000001 0.06746600000000003 0.132574 0.041488000000000025
-7.6 0.041163000000000005 -0.07480200000000001 0.06685000000000002 0.132442 0.03761300000000001
-7.5 0.040733 -0.07301999999999999 0.066276 0.13200599999999998 0.03470599999999996
-7.4 0.040302000000000004 -0.07121600000000002 0.06570499999999996 0.131529 0.032107
-7.3 0.03987 -0.069411 0.06513600000000003 0.13105299999999998 0.029509000000000007
-7.2 0.039419 -0.06744000000000001 0.064604 0.130278 0.026911000000000018
-7.1 0.038965 -0.06544199999999999 0.06408000000000003 0.12945800000000002 0.024312999999999974
-7.0 0.038512000000000005 -0.06344399999999999 0.063556 0.128637 0.02171500000000004
-6.9 0.038037 -0.06128199999999999 0.06307099999999999 0.127523 0.020006999999999997
-6.8 0.037561000000000004 -0.059091000000000005 0.06259200000000004 0.126359 0.018684000000000034
-6.7 0.037084000000000006 -0.05690099999999999 0.06211300000000003 0.12519399999999997 0.017362999999999962
-6.6 0.036588 -0.054549000000000014 0.06167299999999998 0.123742 0.016041000000000027
-6.5 0.036088999999999996 -0.05216499999999999 0.06123999999999996 0.12223200000000001 0.014719000000000038
-6.4 0.035588999999999996 -0.04978199999999999 0.060807 0.120724 0.013396999999999992
-6.3 0.035071000000000005 -0.04723999999999999 0.06041099999999999 0.118933 0.012817999999999996
-6.2 0.03455 -0.04466300000000001 0.06002400000000002 0.11708 0.012664999999999982
-6.1 0.034027 -0.042087 0.059636999999999996 0.115226 0.012510999999999994
-6.0 0.033488000000000004 -0.039455000000000004 0.05925299999999997 0.113171 0.012358000000000036
-5.9 0.032945 -0.036808999999999995 0.05887199999999998 0.111066 0.012203999999999993
-5.8 0.032402 -0.034163 0.058488999999999985 0.10896299999999999 0.012050999999999978
-5.7 0.031844000000000004 -0.031711 0.05803100000000003 0.106846 0.012002999999999986
-5.6 0.031283 -0.029308999999999988 0.05755300000000002 0.10472500000000001 0.01203499999999999
-5.5 0.030723 -0.026907 0.057075000000000015 0.102605 0.012064999999999992
-5.4 0.030147999999999998 -0.024707999999999994 0.056517999999999985 0.100483 0.012096000000000023
-5.3 0.02957 -0.022568000000000005 0.05593699999999999 0.09835999999999999 0.012126999999999999
-5.2 0.028990999999999996 -0.020427999999999995 0.05535599999999999 0.096237 0.012159000000000003
-5.1 0.028399 -0.018485999999999995 0.054699 0.094112 0.012160000000000004
-5.0 0.027803 -0.016607999999999998 0.05401599999999998 0.09198600000000001 0.012135000000000007
-4.9 0.027208000000000003 -0.014728999999999999 0.05333400000000002 0.08986100000000001 0.012109999999999982
-4.8 0.026597999999999997 -0.013046000000000002 0.05257499999999998 0.08773299999999999 0.012085000000000012
-4.7 0.025984999999999998 -0.011430000000000003 0.051790999999999976 0.085604 0.012057999999999985
-4.6 0.025370999999999998 -0.009813000000000002 0.051005999999999996 0.08347600000000001 0.012033000000000016
-4.5 0.024745000000000003 -0.008386999999999999 0.050148 0.081346 0.01198200000000002
-4.4 0.024114999999999998 -0.007031999999999997 0.049261 0.07921600000000001 0.011899999999999994
-4.3 0.023482999999999997 -0.0056769999999999946 0.048374 0.077085 0.011817999999999995
-4.2 0.02284 -0.004508999999999999 0.047415 0.074952 0.01173500000000001
-4.1 0.022191000000000002 -0.0034170000000000034 0.04642700000000001 0.07281800000000001 0.01165300000000001
-4.0 0.021544 -0.0023229999999999987 0.04543799999999999 0.070685 0.011570999999999998
-3.9 0.020883 -0.0014129999999999976 0.04437899999999999 0.068549 0.011466000000000004
-3.8 0.020217 -0.0005819999999999992 0.04328800000000001 0.066413 0.011328000000000005
-3.7 0.019551 0.0002500000000000002 0.042198 0.064277 0.011189000000000004
-3.6 0.018873 0.000903000000000001 0.041037000000000004 0.062139 0.011050000000000004
-3.5 0.01819 0.001472000000000001 0.039845000000000005 0.06 0.010911000000000004
-3.4 0.017506 0.002042000000000002 0.038652000000000006 0.057860999999999996 0.010772999999999991
-3.3 0.016812 0.0024360000000000007 0.037390999999999994 0.05572 0.010615
-3.2 0.01611 0.0027440000000000034 0.036096 0.053579 0.010417999999999997
-3.1 0.01541 0.003051999999999999 0.034802 0.051437 0.010223000000000003
-3.0 0.014698000000000001 0.0031889999999999974 0.033438999999999997 0.049295000000000005 0.010027000000000001
-2.9 0.01398 0.0032350000000000018 0.032043 0.04715 0.009832
-2.8 0.013260999999999998 0.003280999999999999 0.030646 0.045006000000000004 0.009635999999999999
-2.7 0.012532000000000001 0.0031599999999999996 0.029185000000000003 0.042860999999999996 0.009425999999999997
-2.6 0.011795999999999997 0.0029449999999999997 0.027685999999999995 0.040714 0.009173
-2.5 0.01106 0.002728999999999999 0.026186999999999995 0.038567000000000004 0.008919999999999997
-2.4 0.010313 0.0023500000000000014 0.024624 0.036418 0.008669000000000003
-2.3 0.009559999999999999 0.0018729999999999997 0.023023000000000002 0.034268 0.008416
-2.2 0.008806999999999999 0.0013960000000000014 0.021422999999999998 0.032119 0.008163
-2.1 0.008054 0.0007880000000000005 0.019778999999999998 0.029981 0.007907
-2.0 0.007298000000000001 9.500000000000133e-05 0.01811 0.027849000000000002 0.007634999999999999
-1.9 0.006544 -0.0005959999999999993 0.016439000000000002 0.025718 0.007363
-1.8 0.005851 -0.0012349999999999983 0.014854000000000003 0.023676000000000003 0.007091
-1.7 0.005202 -0.001837 0.013326000000000005 0.021696 0.006818999999999999
-1.6 0.0045520000000000005 -0.002439 0.011798999999999997 0.019716 0.006547000000000001
-1.5 0.003974 -0.0029530000000000008 0.010379000000000003 0.017839 0.0062829999999999995
-1.4 0.0034509999999999996 -0.0034040000000000008 0.009037 0.016037 0.0060669999999999995
-1.3 0.002926 -0.003854 0.0076960000000000015 0.014235000000000001 0.005851
-1.2 0.0024730000000000004 -0.00422 0.0064579999999999985 0.012533 0.005635
-1.1 0.0020729999999999998 -0.004520000000000001 0.005301 0.010909 0.005419
-1.0 0.0016750000000000003 -0.0048189999999999995 0.004145000000000001 0.009285999999999999 0.005202
-0.9 0.0013440000000000006 -0.005036 0.0030900000000000007 0.007759 0.004992
-0.8 0.0010709999999999995 -0.005185 0.002118 0.006314 0.004834
-0.7 0.0007979999999999997 -0.005333999999999999 0.0011479999999999997 0.004868 0.004677000000000001
-0.6 0.0005909999999999999 -0.0054020000000000006 0.0002749999999999992 0.003517 0.004518
-0.5 0.00044399999999999995 -0.0054 -0.000511000000000001 0.002249 0.004361
-0.4 0.00029600000000000026 -0.005397 -0.0012969999999999995 0.000982 0.004203
-0.3 0.00021400000000000021 -0.005316 -0.001987 -0.000194 0.0040479999999999995
-0.2 0.0001919999999999999 -0.005163 -0.002588 -0.001283 0.003948
-0.1 0.00016899999999999988 -0.0050100000000000006 -0.003188 -0.002373 0.003848
0.0 0.00020899999999999998 -0.004781 -0.0036960000000000005 -0.003373 0.003749
0.1 0.0003129999999999999 -0.004476 -0.004111 -0.004284 0.003649
0.2 0.0004159999999999999 -0.004171 -0.004526 -0.005195 0.00355
0.3 0.0005809999999999999 -0.003793 -0.004850999999999999 -0.00602 0.00345
0.4 0.00081 -0.0033369999999999997 -0.0050810000000000004 -0.0067540000000000005 0.003407
0.5 0.0010379999999999999 -0.002882 -0.00531 -0.007487 0.003367
0.6 0.0013270000000000003 -0.0023550000000000003 -0.005453 -0.008137 0.0033250000000000003
0.7 0.001682 -0.001748 -0.005497 -0.008692 0.0032840000000000005
0.8 0.0020359999999999996 -0.001142 -0.005542 -0.009247 0.0032430000000000002
0.9 0.002448 -0.00046600000000000027 -0.005501000000000001 -0.009721 0.003202
1.0 0.002928 0.000291 -0.005361 -0.010098 0.003214
1.1 0.003408 0.001049 -0.00522 -0.010475000000000002 0.0032309999999999995
1.2 0.0039440000000000005 0.0018739999999999998 -0.004997 -0.010773 0.003247999999999999
1.3 0.004548999999999999 0.002782 -0.004671 -0.010971999999999999 0.003266
1.4 0.005154 0.003691 -0.004345 -0.011171 0.0032829999999999995
1.5 0.005813 0.004664 -0.003939 -0.011294000000000002 0.0033009999999999984
1.6 0.006544 0.005724 -0.003428 -0.011316 0.003373000000000001
1.7 0.007276 0.006782999999999999 -0.0029170000000000003 -0.011335999999999999 0.0034549999999999997
1.8 0.008057 0.007906 -0.002332 -0.011284 0.003538000000000003
1.9 0.008912 0.009116 -0.001641 -0.011126 0.0036190000000000007
2.0 0.009767000000000001 0.010326 -0.0009510000000000005 -0.010968999999999998 0.0037009999999999994
2.1 0.010646 0.011597 -0.0002630000000000002 -0.010733 0.003783999999999999
2.2 0.011563 0.012958 0.00042299999999999977 -0.01038 0.004078999999999996
2.3 0.012481 0.014317999999999999 0.0011090000000000006 -0.010028 0.0044319999999999984
2.4 0.013411 0.015735 0.0017580000000000009 -0.009598 0.0047850000000000045
2.5 0.014361 0.017245 0.0023479999999999994 -0.009042999999999999 0.005138999999999998
2.6 0.015311 0.018755 0.0029379999999999996 -0.008487999999999999 0.005492000000000004
2.7 0.016273000000000003 0.020319 0.003493999999999999 -0.007858 0.005844999999999996
2.8 0.017256999999999998 0.021979 0.0039889999999999995 -0.007100000000000002 0.0064680000000000015
2.9 0.018239 0.023637 0.004484 -0.006342 0.007191999999999997
3.0 0.019233999999999998 0.025348 0.004945 -0.0055130000000000005 0.007918000000000001
3.1 0.02025 0.027156 0.005345000000000001 -0.0045520000000000005 0.008642999999999998
3.2 0.021267 0.028964999999999998 0.005743999999999999 -0.003590999999999997 0.009368000000000001
3.3 0.022293 0.030823 0.006111 -0.002561999999999995 0.010092000000000004
3.4 0.023342 0.032781 0.0064150000000000006 -0.0013979999999999965 0.011064000000000004
3.5 0.024391 0.034737000000000004 0.00672 -0.0002349999999999991 0.012161000000000005
3.6 0.02545 0.036744 0.006993000000000003 0.0009940000000000018 0.013258000000000006
3.7 0.026532 0.03885 0.007202 0.002360000000000001 0.014354999999999993
3.8 0.027614 0.040956 0.00741 0.003726999999999994 0.015451999999999994
3.9 0.028706000000000002 0.043109 0.0075899999999999995 0.005155999999999994 0.016548000000000007
4.0 0.02982 0.045364 0.007702999999999998 0.006724000000000001 0.017869999999999997
4.1 0.030934999999999997 0.04762 0.007817000000000001 0.008294000000000003 0.019338000000000008
4.2 0.032060000000000005 0.049919 0.007902000000000003 0.009922 0.020806999999999992
4.3 0.033206 0.052324 0.00792 0.011693000000000002 0.022275000000000003
4.4 0.034354 0.05472799999999999 0.007937 0.013466000000000006 0.023743
4.5 0.03551 0.057174 0.007928999999999999 0.015293000000000001 0.025212
4.6 0.036691 0.05972899999999999 0.007851 0.017269 0.02688199999999999
4.7 0.037872 0.062282 0.007774 0.019242999999999996 0.02872200000000001
4.8 0.039061 0.064876 0.007671999999999998 0.021270000000000004 0.030562000000000006
4.9 0.040274 0.06758 0.007499000000000002 0.023447999999999997 0.032401
5.0 0.041488 0.070283 0.007325999999999999 0.025625000000000002 0.03424100000000001
5.1 0.042709 0.073023 0.007130000000000001 0.027853000000000003 0.036081
5.2 0.043955 0.075876 0.006860999999999999 0.03023300000000001 0.038100999999999996
5.3 0.045201 0.078728 0.006592999999999998 0.03261399999999999 0.040313000000000015
5.4 0.046455 0.081615 0.006302000000000002 0.035041 0.04252399999999998
5.5 0.047733000000000005 0.084616 0.005939 0.037624000000000005 0.044736
5.6 0.049013 0.087619 0.005575 0.04020700000000001 0.04694699999999999
5.7 0.050298999999999996 0.090653 0.00519 0.042834 0.04916000000000001
5.8 0.051611 0.093803 0.004731999999999997 0.045619999999999994 0.05151700000000001
5.9 0.052923 0.096954 0.004271999999999998 0.04840499999999999 0.05407100000000001
6.0 0.054235 0.100087 0.0037879999999999997 0.051151 0.05662600000000001
6.1 0.055547 0.10315099999999999 0.003204000000000002 0.053738999999999995 0.059180999999999984
6.2 0.056859 0.106216 0.002619 0.056328 0.061735999999999985
6.3 0.058163 0.109209 0.0020040000000000023 0.05878499999999999 0.06428999999999999
6.4 0.059432 0.111885 0.0012549999999999992 0.06066100000000002 0.06692899999999999
6.5 0.06070300000000001 0.11456100000000001 0.0005070000000000005 0.06253900000000001 0.06971299999999997
6.6 0.061964 0.11717000000000001 -0.0002699999999999994 0.064294 0.072496
6.7 0.063192 0.119456 -0.001181999999999999 0.06545799999999999 0.07527999999999999
6.8 0.06442 0.12174199999999999 -0.0020939999999999986 0.066621 0.078064
6.9 0.06564 0.12396700000000001 -0.0030329999999999975 0.06767400000000001 0.080848
7.0 0.066824 0.125863 -0.0041090000000000015 0.06812299999999999 0.08369700000000002
7.1 0.06801 0.12775899999999998 -0.005186000000000003 0.06857300000000001 0.08669600000000002
7.2 0.069189 0.129599 -0.006284999999999999 0.06892200000000001 0.08969699999999997
7.3 0.07033 0.131105 -0.0075260000000000014 0.06865800000000001 0.09269599999999997
7.4 0.07147300000000001 0.13261 -0.008766 0.06839300000000001 0.09569599999999998
7.5 0.07261 0.134066 -0.010026999999999998 0.06803999999999999 0.098696
7.6 0.07371000000000001 0.135181 -0.011433000000000002 0.067062 0.10174799999999998
7.7 0.07481 0.136297 -0.012837000000000001 0.066083 0.10496399999999997
7.8 0.075905 0.137369 -0.014259999999999998 0.065026 0.10818
7.9 0.076962 0.138094 -0.015829 0.06333399999999997 0.111396
8.0 0.07802 0.138818 -0.017397 0.061643 0.11461299999999999
8.1 0.079073 0.139506 -0.018982 0.05988199999999999 0.11782899999999996
8.2 0.080088 0.139841 -0.020714999999999997 0.05747699999999997 0.12108399999999997
8.3 0.081103 0.140176 -0.022448 0.05507100000000001 0.12451600000000002
8.4 0.08211500000000001 0.140479 -0.024193999999999997 0.05260799999999999 0.127948
8.5 0.083088 0.140424 -0.026091000000000003 0.049487999999999976 0.13138
8.6 0.084059 0.140368 -0.027988 0.046368999999999994 0.134812
8.7 0.08502900000000001 0.140287 -0.029894999999999998 0.04320299999999999 0.13824499999999995
8.8 0.08596 0.139842 -0.031957 0.03936899999999999 0.141704
8.9 0.08689 0.139397 -0.034018 0.03553600000000001 0.14535199999999998
9.0 0.087817 0.138932 -0.03608599999999999 0.031666 0.149001
9.1 0.08870499999999999 0.138096 -0.038312 0.027119000000000004 0.15264899999999998
9.2 0.089593 0.13725900000000002 -0.040537000000000004 0.02257200000000001 0.156298
9.3 0.090478 0.13641 -0.042768 0.017998999999999987 0.159945
9.4 0.091324 0.135184 -0.045157 0.012738 0.163607
9.5 0.092169 0.133958 -0.047546000000000005 0.007475999999999983 0.167472
9.6 0.093013 0.13272499999999998 -0.049939 0.0022020000000000095 0.17133700000000002
9.7 0.09381600000000001 0.13110899999999998 -0.052492 -0.0037739999999999996 0.175201
9.8 0.094619 0.129492 -0.055045 -0.009749000000000008 0.17906499999999997
9.9 0.095421 0.127874 -0.057599000000000004 -0.01572599999999999 0.18293000000000004
10.0 0.096186 0.12590800000000002 -0.060223000000000006 -0.022132999999999986 0.186795
10.1 0.09695200000000001 0.12394100000000001 -0.062847 -0.02854100000000001 0.19105899999999998
10.2 0.097717 0.12197500000000001 -0.065472 -0.03494800000000001 0.19532300000000008
10.3 0.09846 0.119787 -0.067877 -0.040907 0.199588
10.4 0.099203 0.11759599999999999 -0.07028 -0.046861000000000014 0.20385199999999992
10.5 0.09994600000000001 0.115405 -0.072683 -0.052816 0.20811600000000002
10.6 0.10066900000000001 0.113005 -0.074846 -0.058256 0.21238
10.7 0.10139100000000001 0.11060199999999999 -0.077003 -0.06368300000000002 0.21719200000000005
10.8 0.10211400000000001 0.10819699999999999 -0.07916 -0.06911 0.222038
10.9 0.102816 0.10558699999999999 -0.08108 -0.07403000000000001 0.226885
11.0 0.103518 0.10296899999999999 -0.08299 -0.07893 0.23173300000000002
11.1 0.10422000000000001 0.100351 -0.084901 -0.08382900000000001 0.23658
11.2 0.104902 0.097531 -0.08657899999999999 -0.08822999999999998 0.24142599999999997
11.3 0.105583 0.094698 -0.088244 -0.09260200000000002 0.24678500000000003
11.4 0.10626400000000001 0.091866 -0.089908 -0.096974 0.252214
11.5 0.106925 0.088835 -0.09134400000000001 -0.100855 0.257644
11.6 0.107585 0.08579 -0.092762 -0.10469999999999999 0.26307299999999995
11.7 0.108246 0.08274399999999998 -0.094181 -0.108544 0.26850300000000005
11.8 0.10888699999999998 0.07950200000000002 -0.095375 -0.11190599999999998 0.273931
11.9 0.109527 0.07624399999999998 -0.096547 -0.11522299999999999 0.27983699999999995
12.0 0.11016599999999999 0.072984 -0.097719 -0.11853999999999998 0.285849
12.1 0.110788 0.06953199999999998 -0.09867100000000001 -0.12138300000000002 0.291861
12.2 0.111406 0.066058 -0.099596 -0.12417200000000003 0.29787299999999994
12.3 0.11202500000000001 0.062585 -0.100522 -0.12696200000000002 0.303885
12.4 0.112626 0.058923 -0.101231 -0.129284 0.309896
12.5 0.11322399999999999 0.05523599999999998 -0.101912 -0.13154599999999997 0.31634999999999996
12.6 0.11382099999999999 0.05154900000000001 -0.102592 -0.13380799999999998 0.322944
12.7 0.114401 0.047675999999999996 -0.103058 -0.13561099999999998 0.32953899999999997
12.8 0.114978 0.04377500000000001 -0.103492 -0.13734600000000002 0.33613300000000007
12.9 0.115556 0.03987399999999999 -0.103926 -0.13908000000000004 0.342727
13.0 0.11611500000000001 0.035790000000000016 -0.10414999999999999 -0.14036400000000002 0.34932199999999997
13.1 0.11667300000000001 0.03167599999999998 -0.104338 -0.141571 0.356322
13.2 0.11722900000000001 0.027562000000000003 -0.104526 -0.14277799999999996 0.36349899999999996
13.3 0.11776800000000001 0.023266999999999982 -0.104508 -0.143542 0.37067600000000006
13.4 0.11830399999999999 0.01893900000000001 -0.10445000000000002 -0.144221 0.37785199999999997
13.5 0.11884 0.014610999999999985 -0.10439200000000001 -0.144901 0.38503000000000004
13.6 0.119359 0.010106000000000004 -0.10413 -0.145146 0.392207
13.7 0.11987399999999998 0.005564000000000013 -0.103826 -0.14529799999999998 0.399743
13.8 0.120389 0.0010219999999999951 -0.103522 -0.14545000000000002 0.407485
13.9 0.120882 -0.0036629999999999996 -0.103022 -0.145204 0.41522699999999996
14.0 0.121368 -0.008382 -0.10247500000000001 -0.14486300000000002 0.42296800000000007
14.1 0.12185599999999999 -0.013101000000000002 -0.10192899999999999 -0.14452199999999998 0.43071
14.2 0.12227000000000002 -0.017705 -0.101216 -0.14403 0.438452
